,|Q|[Ah](charge),Voltage[V](charge),Capacity[mAh/g](charge),|Q|[Ah](discharge),Voltage[V](discharge),Capacity[mAh/g](discharge)
0,6.207199e-08,3.34958,0.018054680046538686,5.730693e-07,4.2888,0.16668682373472948
1,1.7284656e-07,3.40019,0.05027532286212914,1.14614e-06,4.2862,0.33337405468295517
2,3.7911771e-07,3.45034,0.11027274869109947,1.71921e-06,4.28422,0.5000610820244328
3,8.3463554e-07,3.50049,0.2427677545084351,2.29227e-06,4.28253,0.6667452006980803
4,1.40762e-06,3.5225,0.40942990110529376,2.86534e-06,4.28024,0.8334322280395579
5,1.9806e-06,3.53152,0.5760907504363002,3.4384e-06,4.27856,1.0001163467132053
6,2.55358e-06,3.53688,0.7427515997673064,4.01147e-06,4.27688,1.1668033740546828
7,3.12657e-06,3.54024,0.9094153577661431,4.58454e-06,4.2755,1.3334904013961606
8,3.69955e-06,3.54314,1.0760762070971495,5.15761e-06,4.27351,1.5001774287376382
9,4.27253e-06,3.54528,1.2427370564281557,5.73067e-06,4.27214,1.6668615474112856
10,4.84552e-06,3.54697,1.4094008144269925,6.30374e-06,4.27061,1.833548574752763
11,5.4185e-06,3.54834,1.5760616637579987,6.8768e-06,4.26908,2.0002326934264105
12,5.99148e-06,3.54972,1.742722513089005,7.44987e-06,4.2677,2.166919720767888
13,6.56446e-06,3.55109,1.9093833624200116,8.02293e-06,4.26648,2.3336038394415355
14,7.13744e-06,3.55232,2.076044211751018,8.596e-06,4.26495,2.5002908667830135
15,7.71042e-06,3.55339,2.2427050610820243,9.16906e-06,4.26373,2.666974985456661
16,8.28341e-06,3.55461,2.4093688190808606,9.74213e-06,4.2622,2.833662012798138
17,8.85639e-06,3.55553,2.576029668411867,1.031519e-05,4.26113,3.0003461314717854
18,9.42937e-06,3.55614,2.742690517742873,1.088826e-05,4.25975,3.167033158813263
19,1.000235e-05,3.55706,2.9093513670738798,1.146132e-05,4.25868,3.3337172774869104
20,1.057533e-05,3.55767,3.076012216404887,1.203438e-05,4.25761,3.5004013961605582
21,1.114832e-05,3.55859,3.242675974403723,1.260745e-05,4.25608,3.667088423502036
22,1.17213e-05,3.5592,3.4093368237347295,1.318051e-05,4.25501,3.833772542175683
23,1.229428e-05,3.56012,3.5759976730657357,1.375357e-05,4.25379,4.000456660849331
24,1.286726e-05,3.56057,3.742658522396742,1.432664e-05,4.25241,4.167143688190809
25,1.344024e-05,3.56119,3.909319371727748,1.48997e-05,4.25134,4.3338278068644565
26,1.401322e-05,3.56195,4.075980221058755,1.547277e-05,4.25043,4.500514834205934
27,1.45862e-05,3.56241,4.2426410703897615,1.604583e-05,4.24936,4.6671989528795805
28,1.515918e-05,3.56317,4.409301919720768,1.66189e-05,4.24844,4.8338859802210585
29,1.573216e-05,3.56363,4.575962769051774,1.719196e-05,4.24752,5.000570098894706
30,1.630514e-05,3.56409,4.742623618382781,1.776503e-05,4.2463,5.1672571262361835
31,1.687812e-05,3.5644,4.909284467713787,1.833809e-05,4.24523,5.3339412449098305
32,1.74511e-05,3.56531,5.075945317044793,1.891116e-05,4.24446,5.5006282722513085
33,1.802408e-05,3.56577,5.2426061663758,1.948422e-05,4.24339,5.667312390924956
34,1.859706e-05,3.56623,5.4092670157068055,2.005729e-05,4.24248,5.833999418266434
35,1.917004e-05,3.56669,5.575927865037812,2.063036e-05,4.24156,6.000686445607911
36,1.974303e-05,3.567,5.742591623036649,2.120342e-05,4.24049,6.167370564281558
37,2.031601e-05,3.56761,5.909252472367656,2.177649e-05,4.23972,6.334057591623036
38,2.088899e-05,3.56822,6.075913321698661,2.234955e-05,4.23896,6.500741710296684
39,2.146197e-05,3.56837,6.242574171029668,2.292262e-05,4.23774,6.667428737638162
40,2.203495e-05,3.56898,6.409235020360675,2.349568e-05,4.23697,6.834112856311809
41,2.260793e-05,3.56959,6.5758958696916805,2.406875e-05,4.23621,7.000799883653285
42,2.318091e-05,3.5699,6.742556719022687,2.464181e-05,4.23514,7.167484002326934
43,2.375389e-05,3.57036,6.909217568353693,2.521488e-05,4.23437,7.334171029668412
44,2.432687e-05,3.57066,7.0758784176847,2.578794e-05,4.23361,7.500855148342058
45,2.489985e-05,3.57112,7.242539267015705,2.636101e-05,4.23284,7.667542175683536
46,2.547283e-05,3.57143,7.409200116346712,2.693407e-05,4.23223,7.834226294357185
47,2.604581e-05,3.57173,7.5758609656777205,2.750714e-05,4.23116,8.000913321698661
48,2.66188e-05,3.57235,7.7425247236765555,2.80802e-05,4.2304,8.167597440372308
49,2.719178e-05,3.57281,7.909185573007562,2.865326e-05,4.22979,8.334281559045957
50,2.776476e-05,3.57326,8.075846422338568,2.922633e-05,4.22902,8.500968586387435
51,2.833774e-05,3.57357,8.242507271669576,2.979939e-05,4.22826,8.667652705061082
52,2.891073e-05,3.57388,8.409171029668412,3.037246e-05,4.22765,8.83433973240256
53,2.948371e-05,3.57449,8.575831878999418,3.094552e-05,4.22703,9.001023851076207
54,3.005669e-05,3.57464,8.742492728330424,3.151859e-05,4.22612,9.167710878417685
55,3.062967e-05,3.5751,8.909153577661431,3.209165e-05,4.22566,9.334394997091332
56,3.120266e-05,3.5754,9.075817335660268,3.266472e-05,4.22505,9.50108202443281
57,3.177564e-05,3.57586,9.242478184991272,3.323778e-05,4.22428,9.667766143106457
58,3.234862e-05,3.57632,9.40913903432228,3.381085e-05,4.22398,9.834453170447935
59,3.29216e-05,3.57678,9.575799883653286,3.438391e-05,4.22306,10.001137289121582
60,3.349458e-05,3.57709,9.742460732984293,3.495698e-05,4.22245,10.16782431646306
61,3.406756e-05,3.57739,9.909121582315299,3.553004e-05,4.22184,10.334508435136707
62,3.464054e-05,3.5777,10.075782431646305,3.61031e-05,4.22107,10.501192553810355
63,3.521353e-05,3.57816,10.242446189645142,3.667617e-05,4.22061,10.667879581151832
64,3.578651e-05,3.57846,10.409107038976149,3.724923e-05,4.2197,10.834563699825479
65,3.635949e-05,3.57892,10.575767888307155,3.78223e-05,4.21924,11.001250727166957
66,3.693247e-05,3.57923,10.74242873763816,3.839536e-05,4.21847,11.167934845840604
67,3.750545e-05,3.57938,10.909089586969166,3.896843e-05,4.21801,11.334621873182082
68,3.807843e-05,3.57984,11.075750436300174,3.954149e-05,4.21725,11.50130599185573
69,3.865142e-05,3.57999,11.24241419429901,4.011456e-05,4.21694,11.667993019197208
70,3.92244e-05,3.58045,11.409075043630015,4.068762e-05,4.21648,11.834677137870855
71,3.979738e-05,3.58076,11.575735892961022,4.126069e-05,4.21603,12.001364165212333
72,4.037036e-05,3.58106,11.74239674229203,4.183376e-05,4.21511,12.168051192553811
73,4.094334e-05,3.58167,11.909057591623036,4.240682e-05,4.2148,12.334735311227458
74,4.151632e-05,3.58183,12.075718440954043,4.297989e-05,4.21434,12.501422338568934
75,4.208931e-05,3.58213,12.242382198952878,4.355296e-05,4.21373,12.668109365910412
76,4.266229e-05,3.58274,12.409043048283886,4.412603e-05,4.21327,12.83479639325189
77,4.323527e-05,3.58305,12.575703897614892,4.469909e-05,4.21282,13.001480511925537
78,4.380825e-05,3.5832,12.7423647469459,4.527216e-05,4.2122,13.168167539267015
79,4.438123e-05,3.58351,12.909025596276905,4.584523e-05,4.2119,13.334854566608493
80,4.495422e-05,3.58412,13.075689354275742,4.641829e-05,4.21129,13.50153868528214
81,4.55272e-05,3.58412,13.242350203606748,4.699136e-05,4.21083,13.668225712623618
82,4.610018e-05,3.58458,13.409011052937755,4.756443e-05,4.21052,13.834912739965093
83,4.667316e-05,3.58488,13.57567190226876,4.813749e-05,4.20991,14.001596858638743
84,4.724614e-05,3.58504,13.742332751599765,4.871055e-05,4.20945,14.16828097731239
85,4.781913e-05,3.58565,13.908996509598603,4.928362e-05,4.20915,14.334968004653868
86,4.839211e-05,3.58565,14.075657358929611,4.985668e-05,4.20869,14.501652123327515
87,4.896509e-05,3.58626,14.242318208260617,5.042974e-05,4.20838,14.668336242001162
88,4.953807e-05,3.58657,14.40897905759162,5.10028e-05,4.20792,14.835020360674811
89,5.011105e-05,3.58702,14.575639906922628,5.157587e-05,4.20746,15.001707388016289
90,5.068403e-05,3.58718,14.742300756253636,5.214893e-05,4.20701,15.168391506689936
91,5.125702e-05,3.58764,14.908964514252473,5.2722e-05,4.20655,15.335078534031414
92,5.183e-05,3.58779,15.075625363583477,5.329506e-05,4.20624,15.501762652705061
93,5.240298e-05,3.58825,15.242286212914484,5.386813e-05,4.20563,15.668449680046539
94,5.297597e-05,3.58855,15.408949970913323,5.444119e-05,4.20532,15.835133798720188
95,5.354895e-05,3.58871,15.575610820244329,5.501425e-05,4.20471,16.001817917393833
96,5.412194e-05,3.58916,15.742274578243162,5.558732e-05,4.20441,16.16850494473531
97,5.469492e-05,3.58947,15.90893542757417,5.616038e-05,4.20425,16.335189063408958
98,5.52679e-05,3.58978,16.075596276905177,5.673345e-05,4.20364,16.501876090750436
99,5.584088e-05,3.59023,16.242257126236183,5.730651e-05,4.20334,16.668560209424083
100,5.641386e-05,3.59069,16.40891797556719,5.787958e-05,4.20303,16.83524723676556
101,5.698684e-05,3.59069,16.575578824898194,5.845264e-05,4.20257,17.001931355439208
102,5.755982e-05,3.59131,16.742239674229204,5.902571e-05,4.20242,17.168618382780686
103,5.813281e-05,3.59161,16.908903432228037,5.959877e-05,4.20196,17.335302501454333
104,5.870579e-05,3.59207,17.075564281559046,6.017184e-05,4.20135,17.50198952879581
105,5.927877e-05,3.59238,17.24222513089005,6.074491e-05,4.20104,17.66867655613729
106,5.985175e-05,3.59268,17.408885980221058,6.131797e-05,4.20058,17.835360674810936
107,6.042473e-05,3.59299,17.575546829552064,6.189104e-05,4.20013,18.002047702152414
108,6.099771e-05,3.59329,17.74220767888307,6.246411e-05,4.19997,18.16873472949389
109,6.157069e-05,3.5936,17.908868528214075,6.303718e-05,4.19982,18.33542175683537
110,6.214367e-05,3.59406,18.075529377545084,6.361024e-05,4.19936,18.502105875509017
111,6.271666e-05,3.59436,18.24219313554392,6.418331e-05,4.19906,18.668792902850495
112,6.328964e-05,3.59452,18.408853984874927,6.475638e-05,4.19875,18.835479930191973
113,6.386262e-05,3.59513,18.57551483420593,6.532944e-05,4.19814,19.00216404886562
114,6.44356e-05,3.59543,18.742175683536942,6.590251e-05,4.19783,19.168851076207098
115,6.500858e-05,3.59559,18.908836532867944,6.647557e-05,4.19783,19.335535194880745
116,6.558157e-05,3.59604,19.07550029086678,6.704864e-05,4.19722,19.502222222222223
117,6.615455e-05,3.59635,19.242161140197787,6.76217e-05,4.19691,19.66890634089587
118,6.672753e-05,3.59666,19.408821989528796,6.819477e-05,4.19676,19.835593368237348
119,6.730051e-05,3.59696,19.575482838859802,6.876784e-05,4.1963,20.002280395578826
120,6.78735e-05,3.59727,19.742146596858635,6.93409e-05,4.19615,20.168964514252472
121,6.844648e-05,3.59757,19.90880744618964,6.991397e-05,4.19584,20.33565154159395
122,6.901947e-05,3.59788,20.07547120418848,7.048704e-05,4.19554,20.502338568935425
123,6.959245e-05,3.59834,20.242132053519487,7.106011e-05,4.19493,20.669025596276903
124,7.016543e-05,3.59849,20.408792902850493,7.163317e-05,4.19477,20.83570971495055
125,7.073841e-05,3.5988,20.5754537521815,7.220624e-05,4.19462,21.002396742292028
126,7.131139e-05,3.59941,20.742114601512505,7.277931e-05,4.19401,21.169083769633506
127,7.188437e-05,3.59971,20.908775450843514,7.335237e-05,4.1937,21.335767888307153
128,7.245735e-05,3.60017,21.07543630017452,7.392544e-05,4.19355,21.50245491564863
129,7.303033e-05,3.60033,21.24209714950553,7.44985e-05,4.19309,21.669139034322278
130,7.360331e-05,3.60063,21.408757998836535,7.507156e-05,4.19309,21.83582315299593
131,7.417629e-05,3.60078,21.575418848167537,7.564463e-05,4.19279,22.002510180337406
132,7.474927e-05,3.60124,21.742079697498546,7.621769e-05,4.19248,22.169194299011053
133,7.532225e-05,3.60155,21.90874054682955,7.679076e-05,4.19202,22.33588132635253
134,7.589523e-05,3.60185,22.075401396160558,7.736383e-05,4.19172,22.50256835369401
135,7.646821e-05,3.60231,22.242062245491564,7.793689e-05,4.19141,22.669252472367656
136,7.704119e-05,3.60262,22.40872309482257,7.850995e-05,4.19126,22.835936591041303
137,7.761417e-05,3.60308,22.575383944153575,7.908302e-05,4.19095,23.00262361838278
138,7.818715e-05,3.60338,22.742044793484585,7.965608e-05,4.19065,23.169307737056428
139,7.876013e-05,3.60354,22.908705642815587,8.022915e-05,4.19019,23.335994764397906
140,7.93331e-05,3.6043,23.075363583478765,8.080222e-05,4.19003,23.502681791739384
141,7.990608e-05,3.6043,23.242024432809767,8.137528e-05,4.18973,23.66936591041303
142,8.047906e-05,3.60461,23.40868528214078,8.194835e-05,4.18927,23.83605293775451
143,8.105204e-05,3.60507,23.575346131471786,8.252142e-05,4.18912,24.002739965095984
144,8.162502e-05,3.60537,23.74200698080279,8.309448e-05,4.18881,24.16942408376963
145,8.219801e-05,3.60583,23.908670738801625,8.366755e-05,4.18866,24.33611111111111
146,8.277099e-05,3.60614,24.075331588132634,8.424061e-05,4.18835,24.502795229784756
147,8.334396e-05,3.60644,24.241989528795813,8.481368e-05,4.18805,24.669482257126234
148,8.391694e-05,3.60675,24.408650378126815,8.538674e-05,4.18759,24.836166375799884
149,8.448992e-05,3.60721,24.575311227457824,8.59598e-05,4.18728,25.00285049447353
150,8.50629e-05,3.60766,24.74197207678883,8.653286e-05,4.18713,25.169534613147178
151,8.563588e-05,3.60782,24.908632926119836,8.710593e-05,4.18667,25.336221640488656
152,8.620886e-05,3.60828,25.07529377545084,8.767899e-05,4.18637,25.502905759162303
153,8.678184e-05,3.60858,25.24195462478185,8.825206e-05,4.18621,25.66959278650378
154,8.735482e-05,3.60904,25.408615474112853,8.882512e-05,4.1856,25.836276905177428
155,8.79278e-05,3.60935,25.575276323443862,8.939819e-05,4.1856,26.002963932518906
156,8.850078e-05,3.60996,25.741937172774865,8.997125e-05,4.18514,26.169648051192553
157,8.907376e-05,3.61042,25.908598022105878,9.054432e-05,4.18484,26.33633507853403
158,8.964674e-05,3.61072,26.07525887143688,9.111739e-05,4.18468,26.50302210587551
159,9.021972e-05,3.61088,26.241919720767886,9.169045e-05,4.18422,26.669706224549156
160,9.07927e-05,3.61133,26.40858057009889,9.226352e-05,4.18377,26.836393251890634
161,9.136569e-05,3.61164,26.57524432809773,9.283659e-05,4.18361,27.003080279232112
162,9.193867e-05,3.61225,26.741905177428738,9.340965e-05,4.183,27.16976439790576
163,9.251165e-05,3.61256,26.908566026759743,9.398272e-05,4.18285,27.336451425247237
164,9.308463e-05,3.61271,27.075226876090746,9.455578e-05,4.18239,27.503135543920884
165,9.365761e-05,3.61317,27.24188772542176,9.512885e-05,4.18224,27.669822571262362
166,9.423059e-05,3.61363,27.40854857475276,9.570191e-05,4.18178,27.83650668993601
167,9.480357e-05,3.61378,27.57520942408377,9.627498e-05,4.18147,28.003193717277487
168,9.537655e-05,3.61424,27.741870273414772,9.684804e-05,4.18117,28.169877835951134
169,9.594953e-05,3.6147,27.90853112274578,9.742111e-05,4.18101,28.33656486329261
170,9.652251e-05,3.61516,28.075191972076787,9.799417e-05,4.18056,28.50324898196626
171,9.709548e-05,3.61562,28.241849912739962,9.856724e-05,4.1801,28.669936009307737
172,9.766846e-05,3.61607,28.40851076207097,9.91403e-05,4.17964,28.836620127981384
173,9.824144e-05,3.61638,28.575171611401977,9.971337e-05,4.17979,29.00330715532286
174,9.881442e-05,3.61684,28.741832460732983,0.00010028643,4.17918,29.16999127399651
175,9.93874e-05,3.61684,28.90849331006399,0.0001008595,4.17887,29.336678301337987
176,9.996038e-05,3.61745,29.075154159394994,0.00010143256,4.17841,29.503362420011634
177,0.00010053336,3.61776,29.241815008726004,0.00010200563,4.17796,29.67004944735311
178,0.00010110634,3.61837,29.40847585805701,0.00010257869,4.17765,29.836733566026755
179,0.00010167932,3.61852,29.575136707388012,0.00010315176,4.1775,30.003420593368233
180,0.0001022523,3.61883,29.74179755671902,0.00010372483,4.17673,30.17010762070971
181,0.00010282527,3.61944,29.9084554973822,0.00010429789,4.17627,30.336791739383358
182,0.00010339826,3.61974,30.075119255381036,0.00010487096,4.17612,30.503478766724836
183,0.00010397123,3.62005,30.24177719604421,0.00010544403,4.17582,30.670165794066314
184,0.00010454421,3.62081,30.408438045375213,0.00010601709,4.17536,30.836849912739968
185,0.00010511719,3.62112,30.575098894706226,0.00010659016,4.17505,31.003536940081446
186,0.00010569017,3.62143,30.74175974403723,0.00010716322,4.17444,31.170221058755093
187,0.00010626315,3.62188,30.908420593368238,0.00010773629,4.17413,31.33690808609657
188,0.00010683613,3.62234,31.07508144269924,0.00010830936,4.17367,31.503595113438042
189,0.00010740911,3.62295,31.24174229203025,0.00010888242,4.17337,31.67027923211169
190,0.00010798209,3.62311,31.408403141361255,0.00010945549,4.17291,31.836966259453167
191,0.00010855507,3.62357,31.57506399069226,0.00011002855,4.1723,32.003650378126814
192,0.00010912805,3.62387,31.741724840023267,0.00011060162,4.17184,32.170337405468295
193,0.00010970102,3.62433,31.908382780686445,0.00011117469,4.17153,32.33702443280977
194,0.000110274,3.62479,32.075043630017454,0.00011174775,4.17092,32.50370855148342
195,0.00011084698,3.62525,32.241704479348456,0.00011232082,4.17031,32.670395578824895
196,0.00011141996,3.62571,32.408365328679466,0.00011289388,4.17016,32.837079697498545
197,0.00011199294,3.62616,32.57502617801047,0.00011346694,4.1697,33.00376381617219
198,0.00011256592,3.62632,32.74168702734148,0.00011404001,4.16924,33.17045084351367
199,0.0001131389,3.62693,32.90834787667248,0.00011461307,4.16878,33.337134962187314
200,0.00011371188,3.62754,33.07500872600349,0.00011518614,4.16832,33.503821989528795
201,0.00011428486,3.62785,33.24166957533449,0.0001157592,4.16756,33.670506108202446
202,0.00011485784,3.62831,33.40833042466551,0.00011633227,4.16725,33.83719313554392
203,0.00011543081,3.62892,33.57498836532868,0.00011690533,4.16649,34.00387725421757
204,0.00011600379,3.62922,33.74164921465968,0.0001174784,4.16603,34.170564281559045
205,0.00011657677,3.62983,33.90831006399069,0.00011805146,4.16527,34.337248400232696
206,0.00011714975,3.63014,34.0749709133217,0.00011862453,4.16496,34.50393542757417
207,0.00011772273,3.63045,34.24163176265271,0.00011919759,4.16435,34.67061954624782
208,0.00011829571,3.63106,34.40829261198371,0.00011977066,4.16343,34.837306573589295
209,0.00011886868,3.63121,34.57495055264688,0.00012034372,4.16297,35.003990692262946
210,0.00011944167,3.63197,34.74161431064572,0.00012091679,4.16251,35.17067771960442
211,0.00012001465,3.63228,34.90827515997673,0.00012148986,4.1619,35.337364746945894
212,0.00012058762,3.63274,35.0749331006399,0.00012206292,4.16129,35.504048865619545
213,0.00012116061,3.6332,35.241596858638744,0.00012263599,4.16053,35.67073589296103
214,0.00012173359,3.63366,35.408257707969746,0.00012320905,4.16007,35.83742001163467
215,0.00012230657,3.63412,35.574918557300755,0.00012378212,4.1593,36.004107038976144
216,0.00012287954,3.63473,35.74157649796393,0.00012435519,4.15884,36.170794066317626
217,0.00012345252,3.63503,35.908237347294936,0.00012492825,4.15823,36.33747818499128
218,0.0001240255,3.63564,36.074898196625945,0.00012550132,4.15762,36.50416521233275
219,0.00012459849,3.63595,36.241561954624785,0.00012607438,4.15686,36.6708493310064
220,0.00012517147,3.63656,36.40822280395579,0.00012664745,4.15609,36.837536358347876
221,0.00012574445,3.63687,36.57488365328679,0.00012722052,4.15548,37.00422338568936
222,0.00012631743,3.63748,36.7415445026178,0.00012779358,4.15456,37.170907504363
223,0.00012689041,3.63778,36.9082053519488,0.00012836665,4.15395,37.337594531704475
224,0.00012746339,3.6384,37.07486620127981,0.00012893971,4.15334,37.504278650378126
225,0.00012803637,3.63885,37.24152705061082,0.00012951277,4.15273,37.67096276905177
226,0.00012860934,3.63931,37.408184991274,0.00013008584,4.15181,37.83764979639325
227,0.00012918232,3.63993,37.574845840605,0.00013065891,4.1512,38.004336823734725
228,0.0001297553,3.64038,37.74150668993601,0.00013123197,4.15028,38.17102094240837
229,0.00013032828,3.64084,37.90816753926702,0.00013180504,4.14982,38.33770796974986
230,0.00013090126,3.641,38.074828388598014,0.0001323781,4.14891,38.50439208842351
231,0.00013147424,3.64161,38.24148923792903,0.00013295116,4.14829,38.67107620709715
232,0.00013204722,3.64207,38.40815008726003,0.00013352423,4.14738,38.83776323443862
233,0.0001326202,3.64268,38.57481093659104,0.00013409729,4.14661,39.00444735311227
234,0.00013319318,3.64298,38.741471785922045,0.00013467036,4.1457,39.17113438045376
235,0.00013376616,3.64359,38.90813263525305,0.00013524342,4.14493,39.3378184991274
236,0.00013433914,3.6439,39.07479348458406,0.00013581649,4.14401,39.50450552646887
237,0.00013491212,3.64482,39.24145433391507,0.00013638955,4.1434,39.67118964514252
238,0.00013548509,3.64497,39.40811227457824,0.00013696262,4.14264,39.83787667248401
239,0.00013605807,3.64543,39.57477312390925,0.00013753568,4.14172,40.00456079115765
